# wavelength_unit: nm
# action: transmission
wavelength    transmission
115.0    0.300146
120.0    0.359919
125.0    0.41759300000000005
130.0    0.47143
135.0    0.528706
140.0    0.556095
145.0    0.583314
150.0    0.6096309999999999
155.0    0.634065
165.0    0.673609
175.0    0.6887300000000001
185.0    0.7149840000000001
195.0    0.738155
205.0    0.775046
225.0    0.771644
245.0    0.752259
265.0    0.716548
285.0    0.6915789999999999
305.0    0.626997
